Wavelength Transmission
300.0	0.01554
300.2	0.01395
300.4	0.01186
300.6	0.00992
300.8	0.0082
301.0	0.00689
301.2	0.00594
301.4	0.00542
301.6	0.00507
301.8	0.00498
302.0	0.00499
302.2	0.00522
302.4	0.00547
302.6	0.00573
302.8	0.00628
303.0	0.00705
303.2	0.00862
303.4	0.01118
303.6	0.01539
303.8	0.02148
304.0	0.02984
304.2	0.03856
304.4	0.04727
304.6	0.05355
304.8	0.05726
305.0	0.05976
305.2	0.06187
305.4	0.06919
305.6	0.07807
305.8	0.08828
306.0	0.09654
306.2	0.10198
306.4	0.1062
306.6	0.10991
306.8	0.11301
307.0	0.11621
307.2	0.11707
307.4	0.11456
307.6	0.10892
307.8	0.10221
308.0	0.09744
308.2	0.0962
308.4	0.09903
308.6	0.10291
308.8	0.10447
309.0	0.09988
309.2	0.09006
309.4	0.07715
309.6	0.06524
309.8	0.05808
310.0	0.05916
310.2	0.06716
310.4	0.08046
310.6	0.09426
310.8	0.10324
311.0	0.10445
311.2	0.09828
311.4	0.08809
311.6	0.08039
311.8	0.079
312.0	0.08303
312.2	0.09122
312.4	0.09685
312.6	0.09846
312.8	0.09351
313.0	0.08253
313.2	0.06812
313.4	0.05529
313.6	0.04374
313.8	0.03365
314.0	0.02553
314.2	0.01991
314.4	0.01547
314.6	0.01147
314.8	0.00817
315.0	0.00579
315.2	0.00479
315.4	0.00413
315.6	0.00387
315.8	0.0033
316.0	0.00321
316.2	0.00325
316.4	0.00332
316.6	0.00347
316.8	0.00346
317.0	0.0036
317.2	0.00364
317.4	0.00365
317.6	0.00376
317.8	0.00367
318.0	0.00394
318.2	0.00393
318.4	0.00396
318.6	0.00397
318.8	0.00413
319.0	0.00417
319.2	0.00426
319.4	0.00428
319.6	0.00429
319.8	0.0044
320.0	0.00429
320.2	0.00431
320.4	0.00436
320.6	0.00442
320.8	0.00458
321.0	0.00461
321.2	0.00469
321.4	0.0049
321.6	0.00512
321.8	0.00529
322.0	0.00552
322.2	0.00585
322.4	0.00605
322.6	0.00629
322.8	0.00643
323.0	0.00652
323.2	0.0066
323.4	0.00651
323.6	0.00661
323.8	0.00654
324.0	0.00631
324.2	0.00625
324.4	0.00618
324.6	0.00614
324.8	0.00597
325.0	0.00596
325.2	0.00589
325.4	0.00591
325.6	0.00601
325.8	0.00616
326.0	0.00628
326.2	0.00636
326.4	0.00651
326.6	0.00664
326.8	0.00658
327.0	0.00661
327.2	0.00667
327.4	0.00659
327.6	0.00658
327.8	0.00653
328.0	0.00645
328.2	0.00649
328.4	0.00636
328.6	0.00632
328.8	0.00637
329.0	0.00628
329.2	0.0063
329.4	0.00636
329.6	0.00629
329.8	0.00624
330.0	0.00628
330.2	0.00627
330.4	0.00634
330.6	0.00631
330.8	0.00644
331.0	0.00646
331.2	0.00699
331.4	0.00749
331.6	0.00785
331.8	0.00814
332.0	0.0084
332.2	0.00886
332.4	0.00946
332.6	0.01028
332.8	0.01087
333.0	0.01129
333.2	0.01168
333.4	0.01218
333.6	0.01354
333.8	0.01673
334.0	0.02213
334.2	0.02788
334.4	0.03232
334.6	0.03532
334.8	0.03737
335.0	0.04016
335.2	0.04392
335.4	0.04932
335.6	0.05426
335.8	0.0581
336.0	0.0613
336.2	0.06319
336.4	0.06367
336.6	0.06294
336.8	0.06313
337.0	0.06667
337.2	0.07589
337.4	0.08775
337.6	0.0998
337.8	0.11198
338.0	0.12474
338.2	0.13688
338.4	0.14646
338.6	0.14887
338.8	0.14549
339.0	0.13937
339.2	0.13138
339.4	0.12097
339.6	0.10679
339.8	0.0938
340.0	0.08957
340.2	0.09924
340.4	0.11964
340.6	0.14031
340.8	0.15667
341.0	0.16784
341.2	0.17321
341.4	0.17329
341.6	0.17034
341.8	0.16879
342.0	0.17211
342.2	0.17782
342.4	0.18342
342.6	0.18632
342.8	0.18675
343.0	0.18419
343.2	0.18113
343.4	0.17906
343.6	0.17887
343.8	0.17946
344.0	0.17909
344.2	0.17685
344.4	0.16837
344.6	0.15056
344.8	0.12565
345.0	0.09833
345.2	0.07493
345.4	0.05703
345.6	0.04271
345.8	0.03205
346.0	0.02749
346.2	0.02863
346.4	0.03428
346.6	0.04298
346.8	0.05303
347.0	0.0613
347.2	0.06663
347.4	0.06796
347.6	0.06639
347.8	0.06142
348.0	0.05377
348.2	0.04409
348.4	0.03519
348.6	0.02845
348.8	0.02408
349.0	0.02127
349.2	0.01956
349.4	0.01837
349.6	0.01727
349.8	0.01633
350.0	0.01588
350.2	0.01674
350.4	0.01956
350.6	0.0252
350.8	0.03519
351.0	0.04876
351.2	0.06388
351.4	0.07779
351.6	0.08892
351.8	0.09703
352.0	0.10245
352.2	0.10556
352.4	0.10761
352.6	0.11152
352.8	0.11939
353.0	0.13212
353.2	0.14997
353.4	0.17031
353.6	0.1905
353.8	0.20644
354.0	0.21762
354.2	0.22347
354.4	0.22596
354.6	0.22801
354.8	0.23091
355.0	0.2381
355.2	0.25071
355.4	0.26672
355.6	0.28661
355.8	0.30891
356.0	0.3308
356.2	0.34817
356.4	0.35996
356.6	0.36552
356.8	0.36778
357.0	0.37033
357.2	0.37343
357.4	0.37536
357.6	0.37471
357.8	0.37158
358.0	0.36874
358.2	0.36776
358.4	0.36827
358.6	0.3702
358.8	0.37489
359.0	0.38457
359.2	0.4008
359.4	0.41919
359.6	0.43968
359.8	0.45781
360.0	0.47068
360.2	0.47828
360.4	0.48129
360.6	0.47993
360.8	0.47488
361.0	0.46812
361.2	0.4588
361.4	0.45009
361.6	0.44352
361.8	0.43991
362.0	0.43847
362.2	0.44021
362.4	0.44465
362.6	0.45352
362.8	0.46603
363.0	0.48114
363.2	0.49675
363.4	0.51142
363.6	0.52124
363.8	0.52442
364.0	0.52151
364.2	0.51446
364.4	0.50509
364.6	0.4962
364.8	0.49127
365.0	0.49503
365.2	0.51326
365.4	0.53438
365.6	0.55625
365.8	0.57453
366.0	0.58668
366.2	0.5886
366.4	0.58376
366.6	0.56951
366.8	0.54806
367.0	0.5222
367.2	0.49945
367.4	0.47793
367.6	0.4619
367.8	0.45273
368.0	0.44917
368.2	0.45183
368.4	0.45915
368.6	0.47263
368.8	0.49322
369.0	0.51815
369.2	0.5456
369.4	0.57178
369.6	0.59482
369.8	0.61223
370.0	0.61468
370.2	0.60657
370.4	0.58902
370.6	0.56274
370.8	0.53187
371.0	0.50255
371.2	0.47587
371.4	0.45733
371.6	0.45061
371.8	0.45443
372.0	0.46836
372.2	0.49085
372.4	0.52175
372.6	0.5574
372.8	0.59337
373.0	0.62859
373.2	0.66075
373.4	0.68448
373.6	0.7026
373.8	0.71025
374.0	0.71221
374.2	0.70668
374.4	0.69999
374.6	0.69415
374.8	0.68963
375.0	0.68597
375.2	0.67915
375.4	0.66395
375.6	0.64136
375.8	0.60824
376.0	0.56643
376.2	0.51568
376.4	0.46107
376.6	0.40366
376.8	0.35053
377.0	0.30771
377.2	0.28125
377.4	0.27494
377.6	0.28441
377.8	0.30476
378.0	0.32614
378.2	0.34487
378.4	0.3553
378.6	0.35442
378.8	0.34098
379.0	0.31445
379.2	0.27504
379.4	0.22776
379.6	0.17819
379.8	0.1353
380.0	0.10034
380.2	0.07554
380.4	0.05855
380.6	0.04744
380.8	0.04057
381.0	0.03573
381.2	0.03215
381.4	0.0298
381.6	0.02786
381.8	0.02674
382.0	0.0258
382.2	0.02543
382.4	0.0251
382.6	0.02471
382.8	0.02426
383.0	0.02449
383.2	0.02456
383.4	0.02454
383.6	0.0246
383.8	0.02476
384.0	0.02508
384.2	0.02503
384.4	0.02536
384.6	0.02552
384.8	0.02559
385.0	0.02607
385.2	0.02626
385.4	0.02659
385.6	0.0271
385.8	0.02761
386.0	0.02815
386.2	0.02953
386.4	0.03122
386.6	0.03461
386.8	0.04006
387.0	0.04857
387.2	0.05798
387.4	0.06755
387.6	0.07553
387.8	0.08215
388.0	0.08641
388.2	0.08952
388.4	0.09187
388.6	0.09225
388.8	0.09133
389.0	0.08959
389.2	0.08916
389.4	0.09245
389.6	0.10122
389.8	0.11816
390.0	0.14167
390.2	0.17041
390.4	0.19936
390.6	0.22677
390.8	0.25069
391.0	0.27064
391.2	0.28726
391.4	0.30149
391.6	0.31694
391.8	0.32968
392.0	0.3374
392.2	0.34313
392.4	0.34867
392.6	0.35678
392.8	0.36872
393.0	0.38335
393.2	0.39739
393.4	0.40954
393.6	0.42131
393.8	0.4377
394.0	0.45819
394.2	0.48398
394.4	0.5124
394.6	0.54178
394.8	0.57113
395.0	0.60035
395.2	0.62773
395.4	0.65229
395.6	0.67995
395.8	0.70393
396.0	0.72991
396.2	0.75559
396.4	0.77908
396.6	0.80063
396.8	0.82106
397.0	0.83783
397.2	0.84977
397.4	0.86136
397.6	0.86961
397.8	0.87355
398.0	0.87741
398.2	0.88001
398.4	0.87911
398.6	0.8794
398.8	0.88131
399.0	0.88514
399.2	0.88847
399.4	0.89182
399.6	0.8973
399.8	0.90427
400.0	0.90818
400.2	0.91193
400.4	0.91462
400.6	0.91869
400.8	0.9201
401.0	0.92244
401.2	0.92529
401.4	0.92526
401.6	0.9269
401.8	0.92795
402.0	0.92978
402.2	0.92924
402.4	0.92927
402.6	0.9278
402.8	0.92691
403.0	0.92741
403.2	0.92689
403.4	0.92806
403.6	0.92671
403.8	0.92628
404.0	0.92779
404.2	0.92812
404.4	0.92819
404.6	0.92801
404.8	0.9295
405.0	0.92831
405.2	0.92939
405.4	0.92929
405.6	0.92947
405.8	0.92948
406.0	0.92987
406.2	0.92944
406.4	0.92866
406.6	0.93098
406.8	0.93145
407.0	0.93232
407.2	0.93278
407.4	0.93357
407.6	0.9343
407.8	0.93336
408.0	0.93126
408.2	0.9324
408.4	0.93111
408.6	0.92949
408.8	0.93003
409.0	0.92855
409.2	0.9293
409.4	0.92876
409.6	0.92688
409.8	0.92623
410.0	0.9277
410.2	0.92727
410.4	0.92837
410.6	0.927
410.8	0.92646
411.0	0.92939
411.2	0.92914
411.4	0.93244
411.6	0.93127
411.8	0.9309
412.0	0.93227
412.2	0.93408
412.4	0.93522
412.6	0.93587
412.8	0.93645
413.0	0.93632
413.2	0.93723
413.4	0.93855
413.6	0.93882
413.8	0.93905
414.0	0.93801
414.2	0.93632
414.4	0.93823
414.6	0.93899
414.8	0.93867
415.0	0.94018
415.2	0.94001
415.4	0.93897
415.6	0.94205
415.8	0.94068
416.0	0.93958
416.2	0.94213
416.4	0.94059
416.6	0.94072
416.8	0.94197
417.0	0.94083
417.2	0.93958
417.4	0.94196
417.6	0.94329
417.8	0.94167
418.0	0.94186
418.2	0.94358
418.4	0.94426
418.6	0.94709
418.8	0.95061
419.0	0.9496
419.2	0.95101
419.4	0.95275
419.6	0.9551
419.8	0.95594
420.0	0.95504
420.2	0.95473
420.4	0.95318
420.6	0.95048
420.8	0.95138
421.0	0.95003
421.2	0.94948
421.4	0.94832
421.6	0.94602
421.8	0.94512
422.0	0.94416
422.2	0.94401
422.4	0.94258
422.6	0.94204
422.8	0.94163
423.0	0.94072
423.2	0.94049
423.4	0.94082
423.6	0.94187
423.8	0.94291
424.0	0.94217
424.2	0.94305
424.4	0.9435
424.6	0.9433
424.8	0.94387
425.0	0.94212
425.2	0.94283
425.4	0.94209
425.6	0.94211
425.8	0.94013
426.0	0.93862
426.2	0.93989
426.4	0.93893
426.6	0.93896
426.8	0.93889
427.0	0.93792
427.2	0.93745
427.4	0.93963
427.6	0.93973
427.8	0.94121
428.0	0.94106
428.2	0.94264
428.4	0.94293
428.6	0.94367
428.8	0.94407
429.0	0.94407
429.2	0.94462
429.4	0.94597
429.6	0.94794
429.8	0.94712
430.0	0.94829
430.2	0.94942
430.4	0.94999
430.6	0.9523
430.8	0.95456
431.0	0.95528
431.2	0.95573
431.4	0.95572
431.6	0.95324
431.8	0.95192
432.0	0.95351
432.2	0.95215
432.4	0.951
432.6	0.95093
432.8	0.94888
433.0	0.94509
433.2	0.94267
433.4	0.9419
433.6	0.94104
433.8	0.94309
434.0	0.94257
434.2	0.94238
434.4	0.94269
434.6	0.94312
434.8	0.94526
435.0	0.94754
435.2	0.94706
435.4	0.9478
435.6	0.94797
435.8	0.94964
436.0	0.95045
436.2	0.94943
436.4	0.94844
436.6	0.94881
436.8	0.94774
437.0	0.9455
437.2	0.94452
437.4	0.94468
437.6	0.94368
437.8	0.94157
438.0	0.94157
438.2	0.93844
438.4	0.93731
438.6	0.93648
438.8	0.93756
439.0	0.93772
439.2	0.93873
439.4	0.93728
439.6	0.9375
439.8	0.93694
440.0	0.93623
440.2	0.93606
440.4	0.93553
440.6	0.93595
440.8	0.93749
441.0	0.93809
441.2	0.93863
441.4	0.94013
441.6	0.94091
441.8	0.94223
442.0	0.94335
442.2	0.94123
442.4	0.943
442.6	0.94358
442.8	0.94404
443.0	0.94383
443.2	0.94388
443.4	0.94451
443.6	0.94625
443.8	0.94587
444.0	0.94633
444.2	0.94707
444.4	0.94845
444.6	0.94777
444.8	0.94812
445.0	0.95174
445.2	0.95057
445.4	0.95015
445.6	0.95076
445.8	0.95163
446.0	0.95209
446.2	0.95087
446.4	0.949
446.6	0.94699
446.8	0.94601
447.0	0.94377
447.2	0.94237
447.4	0.94283
447.6	0.94114
447.8	0.93986
448.0	0.93985
448.2	0.93881
448.4	0.93973
448.6	0.94084
448.8	0.94106
449.0	0.94248
449.2	0.94463
449.4	0.9458
449.6	0.94357
449.8	0.94359
450.0	0.94297
450.2	0.94131
450.4	0.94134
450.6	0.9407
450.8	0.93932
451.0	0.93958
451.2	0.93825
451.4	0.93688
451.6	0.93757
451.8	0.93837
452.0	0.93783
452.2	0.9376
452.4	0.93824
452.6	0.94048
452.8	0.94209
453.0	0.94366
453.2	0.9437
453.4	0.94571
453.6	0.94659
453.8	0.9447
454.0	0.94478
454.2	0.94373
454.4	0.94362
454.6	0.94372
454.8	0.9462
455.0	0.94699
455.2	0.94733
455.4	0.94778
455.6	0.94916
455.8	0.94827
456.0	0.94897
456.2	0.94774
456.4	0.95129
456.6	0.95241
456.8	0.95174
457.0	0.95158
457.2	0.95029
457.4	0.94986
457.6	0.94819
457.8	0.94695
458.0	0.94461
458.2	0.94272
458.4	0.94028
458.6	0.94003
458.8	0.93697
459.0	0.93668
459.2	0.93846
459.4	0.93706
459.6	0.93837
459.8	0.93792
460.0	0.94081
460.2	0.94236
460.4	0.94509
460.6	0.94446
460.8	0.94538
461.0	0.94675
461.2	0.94836
461.4	0.94809
461.6	0.94647
461.8	0.94802
462.0	0.94661
462.2	0.94653
462.4	0.94597
462.6	0.94654
462.8	0.94382
463.0	0.94153
463.2	0.94095
463.4	0.94032
463.6	0.94023
463.8	0.93828
464.0	0.93772
464.2	0.93767
464.4	0.93667
464.6	0.93832
464.8	0.93899
465.0	0.94317
465.2	0.94252
465.4	0.94274
465.6	0.94139
465.8	0.94103
466.0	0.94107
466.2	0.94196
466.4	0.94195
466.6	0.93978
466.8	0.94051
467.0	0.93824
467.2	0.94003
467.4	0.94098
467.6	0.9411
467.8	0.94264
468.0	0.94282
468.2	0.94321
468.4	0.94589
468.6	0.94639
468.8	0.94913
469.0	0.95011
469.2	0.95032
469.4	0.9502
469.6	0.94754
469.8	0.94656
470.0	0.94423
470.2	0.94269
470.4	0.93955
470.6	0.93645
470.8	0.93219
471.0	0.92792
471.2	0.92461
471.4	0.91994
471.6	0.91583
471.8	0.90767
472.0	0.89809
472.2	0.88444
472.4	0.87087
472.6	0.85497
472.8	0.83298
473.0	0.81443
473.2	0.79372
473.4	0.76414
473.6	0.7419
473.8	0.71456
474.0	0.68696
474.2	0.66062
474.4	0.6281
474.6	0.60233
474.8	0.57698
475.0	0.54799
475.2	0.5193
475.4	0.49536
475.6	0.47118
475.8	0.44717
476.0	0.42439
476.2	0.40103
476.4	0.37856
476.6	0.35669
476.8	0.33403
477.0	0.31232
477.2	0.28994
477.4	0.26831
477.6	0.24772
477.8	0.22745
478.0	0.20828
478.2	0.19006
478.4	0.17302
478.6	0.15656
478.8	0.14225
479.0	0.12899
479.2	0.11663
479.4	0.10547
479.6	0.09542
479.8	0.08654
480.0	0.08135
480.2	0.07402
480.4	0.0675
480.6	0.06181
480.8	0.05673
481.0	0.05212
481.2	0.04817
481.4	0.04555
481.6	0.04444
481.8	0.04156
482.0	0.03899
482.2	0.03666
482.4	0.03466
482.6	0.03279
482.8	0.03115
483.0	0.02836
483.2	0.02721
483.4	0.02605
483.6	0.02493
483.8	0.02388
484.0	0.02311
484.2	0.02229
484.4	0.02127
484.6	0.0206
484.8	0.01997
485.0	0.01941
485.2	0.01893
485.4	0.0186
485.6	0.01822
485.8	0.01763
486.0	0.01737
486.2	0.01711
486.4	0.01691
486.6	0.01669
486.8	0.01667
487.0	0.01651
487.2	0.01641
487.4	0.01639
487.6	0.01646
487.8	0.01649
488.0	0.01658
488.2	0.01678
488.4	0.01689
488.6	0.01715
488.8	0.01743
489.0	0.0178
489.2	0.01823
489.4	0.01864
489.6	0.01915
489.8	0.01969
490.0	0.02134
490.2	0.02223
490.4	0.02314
490.6	0.02418
490.8	0.02536
491.0	0.0267
491.2	0.02824
491.4	0.02934
491.6	0.03127
491.8	0.03338
492.0	0.03572
492.2	0.0384
492.4	0.0415
492.6	0.04496
492.8	0.04703
493.0	0.05089
493.2	0.05568
493.4	0.06136
493.6	0.06776
493.8	0.07501
494.0	0.08401
494.2	0.09207
494.4	0.10092
494.6	0.11272
494.8	0.12637
495.0	0.14144
495.2	0.15799
495.4	0.17657
495.6	0.19572
495.8	0.21416
496.0	0.23788
496.2	0.2629
496.4	0.28954
496.6	0.31827
496.8	0.3488
497.0	0.37917
497.2	0.40954
497.4	0.44221
497.6	0.47549
497.8	0.50905
498.0	0.54023
498.2	0.57331
498.4	0.60471
498.6	0.63877
498.8	0.66973
499.0	0.7003
499.2	0.72927
499.4	0.75679
499.6	0.78109
499.8	0.8044
500.0	0.8262
500.2	0.84992
500.4	0.86659
500.6	0.88122
500.8	0.89408
501.0	0.90763
501.2	0.91975
501.4	0.9281
501.6	0.93483
501.8	0.9418
502.0	0.94579
502.2	0.94942
502.4	0.95223
502.6	0.95412
502.8	0.95404
503.0	0.95609
503.2	0.95748
503.4	0.957
503.6	0.95472
503.8	0.95373
504.0	0.95191
504.2	0.95018
504.4	0.95115
504.6	0.95212
504.8	0.9522
505.0	0.95108
505.2	0.9527
505.4	0.95371
505.6	0.95425
505.8	0.95304
506.0	0.95441
506.2	0.95489
506.4	0.95365
506.6	0.95609
506.8	0.95438
507.0	0.95154
507.2	0.95143
507.4	0.95267
507.6	0.94947
507.8	0.94896
508.0	0.94838
508.2	0.94883
508.4	0.95088
508.6	0.95135
508.8	0.95052
509.0	0.9498
509.2	0.94852
509.4	0.94641
509.6	0.94682
509.8	0.94835
510.0	0.95025
510.2	0.94995
510.4	0.94756
510.6	0.94902
510.8	0.94972
511.0	0.94928
511.2	0.95011
511.4	0.94881
511.6	0.94968
511.8	0.94896
512.0	0.94925
512.2	0.9491
512.4	0.95047
512.6	0.95018
512.8	0.94811
513.0	0.94789
513.2	0.94918
513.4	0.95175
513.6	0.95013
513.8	0.95068
514.0	0.94899
514.2	0.94868
514.4	0.95026
514.6	0.94891
514.8	0.94902
515.0	0.95124
515.2	0.95067
515.4	0.95278
515.6	0.95345
515.8	0.95481
516.0	0.95383
516.2	0.95184
516.4	0.95319
516.6	0.95197
516.8	0.9529
517.0	0.95442
517.2	0.95342
517.4	0.9529
517.6	0.95251
517.8	0.95387
518.0	0.95468
518.2	0.95478
518.4	0.95452
518.6	0.95458
518.8	0.9541
519.0	0.95709
519.2	0.95668
519.4	0.95688
519.6	0.95586
519.8	0.95597
520.0	0.9552
520.2	0.95209
520.4	0.95197
520.6	0.95246
520.8	0.95165
521.0	0.95179
521.2	0.95252
521.4	0.95164
521.6	0.94978
521.8	0.94992
522.0	0.95063
522.2	0.95141
522.4	0.95179
522.6	0.94982
522.8	0.94927
523.0	0.94848
523.2	0.94682
523.4	0.94795
523.6	0.95052
523.8	0.95226
524.0	0.95111
524.2	0.95187
524.4	0.95079
524.6	0.95148
524.8	0.95296
525.0	0.95354
525.2	0.95412
525.4	0.954
525.6	0.95463
525.8	0.9549
526.0	0.95509
526.2	0.95602
526.4	0.95603
526.6	0.95401
526.8	0.95544
527.0	0.95585
527.2	0.95646
527.4	0.95785
527.6	0.95746
527.8	0.95888
528.0	0.95869
528.2	0.9584
528.4	0.9593
528.6	0.95868
528.8	0.96046
529.0	0.96172
529.2	0.95986
529.4	0.96036
529.6	0.96047
529.8	0.95838
530.0	0.95637
530.2	0.95502
530.4	0.95325
530.6	0.95418
530.8	0.95466
531.0	0.95496
531.2	0.95465
531.4	0.95455
531.6	0.95441
531.8	0.9548
532.0	0.95452
532.2	0.95394
532.4	0.95526
532.6	0.95744
532.8	0.95831
533.0	0.95655
533.2	0.95691
533.4	0.95834
533.6	0.95768
533.8	0.95948
534.0	0.96101
534.2	0.96208
534.4	0.96139
534.6	0.96153
534.8	0.95955
535.0	0.95927
535.2	0.95852
535.4	0.95744
535.6	0.95669
535.8	0.95573
536.0	0.95506
536.2	0.95512
536.4	0.9552
536.6	0.95641
536.8	0.95421
537.0	0.95284
537.2	0.95238
537.4	0.95236
537.6	0.95549
537.8	0.95591
538.0	0.95727
538.2	0.95871
538.4	0.96013
538.6	0.96114
538.8	0.96089
539.0	0.96435
539.2	0.96549
539.4	0.96736
539.6	0.96722
539.8	0.96748
540.0	0.96503
540.2	0.96505
540.4	0.96772
540.6	0.96625
540.8	0.96528
541.0	0.96344
541.2	0.96291
541.4	0.9602
541.6	0.9557
541.8	0.95454
542.0	0.95563
542.2	0.95784
542.4	0.95903
542.6	0.95928
542.8	0.96025
543.0	0.96228
543.2	0.96033
543.4	0.96093
543.6	0.9622
543.8	0.96149
544.0	0.96415
544.2	0.9648
544.4	0.9662
544.6	0.96642
544.8	0.9657
545.0	0.96626
545.2	0.9654
545.4	0.96438
545.6	0.96135
545.8	0.96034
546.0	0.96144
546.2	0.95929
546.4	0.95782
546.6	0.95693
546.8	0.95475
547.0	0.95213
547.2	0.94889
547.4	0.94634
547.6	0.94511
547.8	0.94408
548.0	0.94603
548.2	0.94499
548.4	0.94543
548.6	0.94441
548.8	0.94534
549.0	0.94613
549.2	0.94644
549.4	0.94605
549.6	0.94277
549.8	0.94006
550.0	0.9344
550.2	0.92519
550.4	0.91535
550.6	0.89971
550.8	0.88078
551.0	0.85903
551.2	0.83615
551.4	0.81131
551.6	0.78362
551.8	0.75512
552.0	0.7261
552.2	0.69423
552.4	0.66208
552.6	0.63154
552.8	0.60345
553.0	0.57613
553.2	0.5527
553.4	0.53193
553.6	0.51301
553.8	0.49902
554.0	0.48807
554.2	0.47917
554.4	0.46989
554.6	0.46155
554.8	0.45421
555.0	0.4453
555.2	0.43522
555.4	0.42473
555.6	0.41256
555.8	0.39673
556.0	0.37948
556.2	0.36015
556.4	0.33859
556.6	0.31622
556.8	0.29138
557.0	0.26734
557.2	0.2424
557.4	0.21631
557.6	0.19137
557.8	0.16799
558.0	0.14651
558.2	0.12662
558.4	0.10826
558.6	0.09227
558.8	0.07824
559.0	0.06625
559.2	0.056
559.4	0.04721
559.6	0.04002
559.8	0.03408
560.0	0.03116
560.2	0.02669
560.4	0.02299
560.6	0.01984
560.8	0.01719
561.0	0.01503
561.2	0.01319
561.4	0.01186
561.6	0.01087
561.8	0.00966
562.0	0.00861
562.2	0.00776
562.4	0.00703
562.6	0.0064
562.8	0.00576
563.0	0.00512
563.2	0.00472
563.4	0.00435
563.6	0.00402
563.8	0.00377
564.0	0.00352
564.2	0.00328
564.4	0.00305
564.6	0.00287
564.8	0.00272
565.0	0.00259
565.2	0.00247
565.4	0.00235
565.6	0.00226
565.8	0.00215
566.0	0.00208
566.2	0.00201
566.4	0.00195
566.6	0.00191
566.8	0.00187
567.0	0.00183
567.2	0.00181
567.4	0.0018
567.6	0.00177
567.8	0.00175
